 Energy(eV)     EyBz     EyBx     ExBz     ExBy
 1 48.4318 3.97199 48.9191 4.35212 51.6719 4.73359 52.034 4.89301
 1.01 49.2275 4.20157 49.7403 4.61199 52.6188 5.01479 52.9944 5.18749
 1.02 50.0745 4.44219 50.6146 4.88498 53.6244 5.31022 54.0145 5.49716
 1.03 50.9742 4.69435 51.5435 5.17172 54.6905 5.62057 55.0962 5.82279
 1.04 51.9281 4.95855 52.5287 5.47288 55.8191 5.94656 56.2415 6.16515
 1.05 52.9379 5.23535 53.572 5.78913 57.0123 6.28895 57.4525 6.52509
 1.06 54.0052 5.52533 54.6753 6.12121 58.2723 6.64855 58.7317 6.90348
 1.07 55.1321 5.82908 55.8405 6.46989 59.6017 7.02621 60.0815 7.30126
 1.08 56.3204 6.14725 57.0699 6.83598 61.0028 7.42282 61.5046 7.71941
 1.09 57.5724 6.4805 58.3657 7.22033 62.4786 7.83932 63.0038 8.15897
 1.1 58.8903 6.82955 59.7305 7.62384 64.0319 8.27674 64.5823 8.62104
 1.11 60.2766 7.19513 61.1669 8.04748 65.6659 8.73611 66.2431 9.1068
 1.12 61.734 7.57804 62.6777 8.49225 67.384 9.21857 67.9899 9.61747
 1.13 63.2652 7.9791 64.266 8.95921 69.1897 9.72531 69.8263 10.1544
 1.14 64.8733 8.39921 65.9348 9.44949 71.0868 10.2576 71.7563 10.7189
 1.15 66.5613 8.83928 67.6877 9.9643 73.0795 10.8167 73.7841 11.3125
 1.16 68.3328 9.3003 69.5282 10.5049 75.1721 11.4042 75.9141 11.9368
 1.17 70.1912 9.78331 71.4603 11.0726 77.3692 12.0215 78.1513 12.5935
 1.18 72.1405 10.2894 73.4882 11.6689 79.6758 12.6702 80.5007 13.2842
 1.19 74.1848 10.8198 75.6161 12.2953 82.0971 13.352 82.9678 14.011
 1.2 76.3285 11.3757 77.8488 12.9533 84.6389 14.0687 85.5584 14.7758
 1.21 78.5762 11.9584 80.1914 13.6448 87.3072 14.8223 88.2788 15.5807
 1.22 80.933 12.5694 82.6491 14.3714 90.1084 15.6149 91.1358 16.4281
 1.23 83.4041 13.2101 85.2278 15.1352 93.0494 16.4487 94.1364 17.3205
 1.24 85.9954 13.8821 87.9335 15.9382 96.1377 17.3259 97.2883 18.2603
 1.25 88.7128 14.5871 90.7727 16.7826 99.3812 18.2492 100.6 19.2505
 1.26 91.5629 15.3269 93.7524 17.6708 102.788 19.2212 104.079 20.294
 1.27 94.5527 16.1035 96.8801 18.6053 106.368 20.2448 107.737 21.394
 1.28 97.6896 16.9188 100.164 19.5887 110.131 21.3231 111.582 22.554
 1.29 100.982 17.7751 103.612 20.6239 114.086 22.4594 115.626 23.7776
 1.3 104.437 18.6748 107.234 21.7141 118.246 23.6573 119.881 25.0689
 1.31 108.066 19.6204 111.04 22.8624 122.623 24.9206 124.359 26.4321
 1.32 111.878 20.6145 115.04 24.0725 127.229 26.2535 129.073 27.8718
 1.33 115.883 21.66 119.245 25.3481 132.079 27.6603 134.038 29.393
 1.34 120.093 22.7602 123.668 26.6933 137.188 29.1459 139.271 31.001
 1.35 124.52 23.9182 128.322 28.1125 142.572 30.7154 144.787 32.7015
 1.36 129.178 25.1377 133.221 29.6104 148.25 32.3744 150.606 34.5009
 1.37 134.081 26.4227 138.381 31.1921 154.24 34.129 156.747 36.4058
 1.38 139.244 27.7772 143.818 32.8631 160.563 35.9857 163.233 38.4236
 1.39 144.684 29.2058 149.549 34.6294 167.243 37.9515 170.086 40.5623
 1.4 150.42 30.7133 155.595 36.4974 174.303 40.0343 177.332 42.8305
 1.41 156.47 32.3052 161.976 38.474 181.77 42.2423 184.999 45.2376
 1.42 162.857 33.987 168.715 40.5668 189.675 44.5848 193.117 47.7937
 1.43 169.603 35.765 175.836 42.7841 198.047 47.0717 201.719 50.5102
 1.44 176.735 37.646 183.367 45.1346 206.923 49.7138 210.841 53.3991
 1.45 184.278 39.6373 191.337 47.6282 216.341 52.523 220.522 56.4739
 1.46 192.264 41.747 199.777 50.2754 226.341 55.5124 230.806 59.7492
 1.47 200.726 43.9837 208.723 53.0877 236.97 58.6963 241.74 63.241
 1.48 209.698 46.3571 218.212 56.0779 248.279 62.0903 253.376 66.967
 1.49 219.221 48.8776 228.287 59.2597 260.322 65.7119 265.772 70.9466
 1.5 229.338 51.5567 238.992 62.6483 273.161 69.5799 278.991 75.2014
 1.51 240.096 54.4069 250.379 66.2604 286.863 73.7157 293.103 79.755
 1.52 251.548 57.4423 262.502 70.1144 301.504 78.1424 308.185 84.6338
 1.53 263.752 60.678 275.423 74.2305 317.166 82.886 324.323 89.867
 1.54 276.772 64.131 289.209 78.631 333.943 87.9753 341.614 95.487
 1.55 290.679 67.8199 303.934 83.3408 351.938 93.4424 360.164 101.53
 1.56 305.552 71.7655 319.683 88.3873 371.265 99.3232 380.092 108.036
 1.57 321.478 75.9909 336.546 93.801 392.054 105.658 401.531 115.052
 1.58 338.558 80.5217 354.626 99.6159 414.45 112.491 424.632 122.626
 1.59 356.899 85.3865 374.038 105.87 438.617 119.874 449.562 130.818
 1.6 376.625 90.6175 394.91 112.606 464.74 127.864 476.514 139.691
 1.61 397.875 96.2506 417.386 119.871 493.027 136.526 505.701 149.319
 1.62 420.805 102.326 441.627 127.719 523.716 145.933 537.369 159.785
 1.63 445.592 108.891 467.817 136.21 557.078 156.168 571.797 171.184
 1.64 472.437 115.995 496.161 145.413 593.423 167.329 609.304 183.623
 1.65 501.569 123.698 526.894 155.405 633.107 179.523 650.255 197.227
 1.66 533.248 132.066 560.283 166.276 676.541 192.879 695.071 212.14
 1.67 567.775 141.177 596.633 178.124 724.197 207.541 744.239 228.525
 1.68 605.493 151.117 636.293 191.067 776.629 223.68 798.323 246.576
 1.69 646.803 161.987 679.665 205.238 834.479 241.492 857.983 266.515
 1.7 692.168 173.904 727.213 220.788 898.504 261.208 923.989 288.605
 1.71 742.127 187.004 779.476 237.898 969.593 283.102 997.25 313.154
 1.72 797.316 201.444 837.08 256.773 1048.8 307.494 1078.84 340.525
 1.73 858.481 217.409 900.759 277.656 1137.39 334.768 1170.04 371.155
 1.74 926.51 235.117 971.377 300.833 1236.87 365.381 1272.37 405.56
 1.75 1002.46 254.826 1049.95 326.639 1349.06 399.885 1387.69 444.368
 1.76 1087.6 276.843 1137.7 355.476 1476.19 438.95 1518.23 488.335
 1.77 1183.48 301.537 1236.07 387.82 1620.97 483.392 1666.73 538.389
 1.78 1291.97 329.352 1346.8 424.248 1786.78 534.219 1836.54 595.669
 1.79 1415.38 360.831 1472.02 465.455 1977.82 592.678 2031.87 661.592
 1.8 1556.6 396.636 1614.29 512.29 2199.38 660.338 2257.95 737.932
 1.81 1719.24 437.588 1776.8 565.798 2458.21 739.18 2521.43 826.932
 1.82 1907.89 484.71 1963.48 627.272 2763.01 831.742 2830.8 931.463
 1.83 2128.5 539.295 2179.26 698.329 3125.15 941.307 3197.09 1055.24
 1.84 2388.84 602.992 2430.36 781.013 3559.66 1072.18 3634.73 1203.12
 1.85 2699.26 677.931 2724.74 877.93 4086.8 1230.09 4162.9 1381.56
 1.86 3073.87 766.907 3072.68 992.446 4734.31 1422.76 4807.49 1599.25
 1.87 3532.3 873.641 3487.64 1128.96 5540.92 1660.78 5603.97 1868.07
 1.88 4102.65 1003.18 3987.45 1293.28 6561.88 1958.93 6601.75 2204.57
 1.89 4826.42 1162.49 4596.11 1493.24 7877.9 2338.2 7870.86 2632.11
 1.9 5767.05 1361.42 5346.45 1739.47 9609.89 2828.99 9512.28 3184.28
 1.91 7024.98 1614.14 6284.04 2046.71 11943.5 3476.01 11673.8 3910.09
 1.92 8763.27 1941.14 7473.25 2435.58 15168.9 4345.82 14574 4881.63
 1.93 11240.7 2371.11 9006.28 2935.24 19733.2 5537.07 18534.4 6204.4
 1.94 14788.9 2936.6 11016.2 3586.74 26241 7188.26 24012.3 8026.79
 1.95 19416.9 3643.45 13693.8 4447.01 35072.1 9455.46 31580.9 10531.3
 1.96 23778.9 4424.89 17313 5598.9 45240.5 12392.8 41680.9 13847.8
 1.97 26395.6 5303.96 22295.2 7184.35 54698 15727 53728.1 17753.2
 1.98 29144.1 6577.27 29248.9 9409.35 61804.9 18528.5 64442.7 21127.1
 1.99 34429.4 8480.72 38770.8 12455.4 63120.6 19215.6 68015.2 22048.6
 2 42781.1 10986.2 50787.2 16277.9 56781.5 17151.2 61897.9 19741.3
 2.01 52924 13590.7 62992.1 20115.7 46415.5 13629 50421.6 15700.1
 2.02 61440.7 15134.8 69785.9 22169.7 36623.1 10201 39083.8 11738.5
 2.03 64199.6 14632.2 66513.8 20983.6 29290.3 7500.98 30317.8 8616.61
 2.04 58583.5 12409.6 55646.6 17396.3 24270.2 5554.82 24433.7 6388.37
 2.05 46742.5 9607.28 43261.9 13366.4 21218.2 4277.78 21179.1 4944.89
 2.06 35082.4 7148.94 32857.8 9998.44 20204.5 3652.11 20160.9 4241.78
 2.07 26654.1 5314.37 25082 7482.05 20278.3 3572.14 19971.7 4155.68
 2.08 21150.8 4020.8 19488.7 5663 19235.5 3547.11 18196.3 4122.3
 2.09 17225.7 3106.64 15489.9 4346.39 16519.1 3216.23 14926.9 3731.28
 2.1 13891.1 2426.44 12623.9 3379.05 13208.4 2733.81 11845.3 3174.8
 2.11 11225.2 1902.74 10580.1 2653.69 10376.1 2277.23 9520.07 2654.85
 2.12 9343.29 1499.04 9169.53 2099.07 8320.85 1898.42 7844.83 2224.02
 2.13 8137.17 1189.18 8304.68 1671.55 6881.78 1593.39 6630.96 1876.01
 2.14 7521.23 959.049 7998.61 1352.08 5869.06 1346.65 5742.78 1593.52
 2.15 7513.63 814.83 8373.62 1152.95 5160.41 1144.19 5099.24 1360.97
 2.16 8179.85 793.078 9582.98 1132.85 4693.94 975.81 4661.49 1166.95
 2.17 9255.42 936.133 11276.2 1362.51 4457.28 835.736 4428.38 1004.71
 2.18 9633.31 1146.59 11835.8 1702.75 4488.54 724.565 4441.87 874.346
 2.19 8750.44 1200.98 10361.1 1809.83 4874.87 655.178 4788.63 789.047
 2.2 7639.29 1098.11 8281.91 1667.01 5651.74 660.285 5506.67 783.67
 2.21 6939.98 960.538 6672.11 1452.56 6387.2 761.754 6188.63 883.312
 2.22 6417.4 847.931 5669.39 1262.83 6177.22 869.049 5965.93 993.842
 2.23 5915.53 775.954 5130.69 1133.53 5180.99 874.157 4970.27 997.921
 2.24 5454.08 746.03 4746.73 1067.29 4228.62 810.668 3980.09 928.012
 2.25 4834.2 718.244 4189.59 1013.15 3587.43 733.701 3248.32 842.337
 2.26 4174.64 665.952 3551.14 934.508 3182.77 662.588 2730.26 762.175
 2.27 3569.85 604.783 3017.14 846.806 2844.21 600.613 2356.13 691.862
 2.28 2991.7 545.927 2611.78 765.411 2480.49 546.622 2076.48 631.357
 2.29 2512.1 492.802 2302.76 694.321 2140.96 499.555 1859.18 579.291
 2.3 2153.32 446.552 2060.14 633.012 1862.89 458.798 1684.6 534.129
 2.31 1886.05 406.713 1863.86 579.986 1648.33 423.375 1540.75 494.599
 2.32 1680.59 372.287 1701.06 533.787 1482.37 392.298 1419.7 459.701
 2.33 1517.09 342.31 1563.31 493.212 1350.14 364.782 1316.04 428.647
 2.34 1383.14 315.99 1444.9 457.306 1241.48 340.227 1225.99 400.821
 2.35 1270.83 292.7 1341.81 425.311 1149.87 318.165 1146.84 375.73
 2.36 1174.95 271.948 1251.14 396.625 1071.12 298.225 1076.6 352.983
 2.37 1091.9 253.341 1170.7 370.765 1002.37 280.11 1013.76 332.258
 2.38 1019.12 236.568 1098.82 347.337 941.627 263.577 957.155 313.296
 2.39 954.736 221.371 1034.18 326.019 887.448 248.426 905.88 295.876
 2.4 897.317 207.544 975.757 306.541 838.743 234.49 859.195 279.818
 2.41 845.768 194.911 922.693 288.679 794.673 221.628 816.506 264.967
 2.42 799.223 183.328 874.301 272.245 754.58 209.721 777.32 251.191
 2.43 756.989 172.673 830.006 257.076 717.934 198.667 741.228 238.378
 2.44 718.499 162.841 789.329 243.035 684.304 188.377 707.884 226.428
 2.45 683.29 153.742 751.863 230.003 653.332 178.776 676.997 215.258
 2.46 650.972 145.301 717.263 217.876 624.721 169.797 648.315 204.793
 2.47 621.221 137.449 685.23 206.565 598.22 161.381 621.623 194.968
 2.48 593.759 130.129 655.51 195.991 573.613 153.478 596.733 185.725
 2.49 568.35 123.289 627.879 186.085 550.716 146.041 573.481 177.013
 2.5 544.79 116.885 602.144 176.786 529.369 139.03 551.725 168.786
 2.51 522.905 110.878 578.136 168.04 509.435 132.41 531.339 161.004
 2.52 502.541 105.232 555.705 159.799 490.792 126.148 512.211 153.631
 2.53 483.565 99.9156 534.72 152.02 473.334 120.215 494.243 146.633
 2.54 465.859 94.9012 515.065 144.664 456.967 114.586 477.348 139.982
 2.55 449.322 90.1637 496.635 137.697 441.61 109.236 461.447 133.65
 2.56 433.863 85.6807 479.341 131.087 427.189 104.145 446.473 127.614
 2.57 419.402 81.4319 463.1 124.808 413.64 99.2938 432.361 121.851
 2.58 405.869 77.399 447.841 118.833 400.905 94.664 419.059 116.342
 2.59 393.203 73.5655 433.499 113.139 388.934 90.2401 406.517 111.068
 2.6 381.349 69.9162 420.018 107.705 377.684 86.0074 394.69 106.012
 2.61 370.26 66.4375 407.349 102.512 367.115 81.9525 383.542 101.159
 2.62 359.896 63.1168 395.447 97.5433 357.193 78.0632 373.037 96.4957
 2.63 350.223 59.9426 384.275 92.7817 347.891 74.3281 363.148 92.008
 2.64 341.212 56.9045 373.802 88.2127 339.185 70.7368 353.848 87.6843
 2.65 332.842 53.9928 364.002 83.8228 331.057 67.2797 345.118 83.5135
 2.66 325.1 51.1985 354.857 79.5993 323.494 63.9479 336.942 79.4853
 2.67 317.98 48.5134 346.355 75.5305 316.491 60.733 329.307 75.59
 2.68 311.487 45.9297 338.493 71.6055 310.05 57.6274 322.209 71.8189
 2.69 305.64 43.4404 331.279 67.8141 304.184 54.624 315.648 68.1635
 2.7 300.482 41.0386 324.738 64.1468 298.92 51.7159 309.632 64.616
 2.71 296.084 38.7182 318.914 60.5945 294.308 48.8969 304.181 61.1691
 2.72 292.575 36.4734 313.892 57.1489 290.433 46.161 299.329 57.8158
 2.73 290.173 34.2991 309.81 53.8023 287.438 43.5029 295.134 54.5497
 2.74 289.255 32.1922 306.91 50.5491 285.569 40.9174 291.689 51.3647
 2.75 290.445 30.1537 305.59 47.388 285.254 38.4003 289.149 48.2552
 2.76 294.515 28.1957 306.408 44.3294 287.205 35.9492 287.773 45.2172
 2.77 301.281 26.3437 309.673 41.3997 292.355 33.5664 287.997 42.2498
 2.78 307.668 24.5928 314.761 38.6071 300.604 31.2622 290.51 39.3598
 2.79 311.37 22.8655 321.481 35.9229 307.846 29.0538 296.104 36.5726
 2.8 315.678 21.1215 329.125 33.3564 309.816 26.9535 304.173 33.9361
 2.81 325.998 19.4334 336.203 30.8634 309.006 24.9438 310.733 31.4401
 2.82 342.608 17.931 347.902 28.4635 309.02 22.9651 315.216 28.9815
 2.83 353.689 16.6812 366.002 26.3877 311.709 21.0566 323.174 26.6124
 2.84 347.625 15.5485 374.836 24.6811 314.307 19.3145 332.305 24.4818
 2.85 331.122 14.2763 361.29 22.8315 311.7 17.6488 331.172 22.4516
 2.86 316.785 12.8218 341.035 20.5947 305.673 15.8732 321.279 20.2339
 2.87 309.273 11.3191 327.413 18.2115 302.246 14.0227 313.466 17.8811
 2.88 307.711 9.85378 321.473 15.8655 303.112 12.196 311.161 15.5431
 2.89 310.622 8.45484 321.338 13.6204 307.766 10.4399 313.685 13.2911
 2.9 317.136 7.13203 325.615 11.4963 315.697 8.77362 320.139 11.1532
 2.91 326.919 5.89255 333.643 9.50538 326.756 7.21102 330.123 9.1484
 2.92 340.009 4.74653 345.271 7.66348 341.106 5.76912 343.654 7.3
 2.93 356.722 3.70943 360.706 5.99492 359.166 4.47207 361.074 5.64073
 2.94 377.624 2.80403 380.45 4.53575 381.6 3.35424 383.013 4.2173
 2.95 403.555 2.06309 405.303 3.33792 409.357 2.46429 410.407 3.09593
 2.96 435.697 1.53333 436.416 2.47548 443.752 1.87111 444.578 2.37039
 2.97 475.689 1.28149 475.401 2.05408 486.599 1.67285 487.361 2.1744
 2.98 525.819 1.40383 524.515 2.22564 540.429 2.01116 541.324 2.70094
 2.99 589.325 2.04118 586.944 3.21177 608.827 3.09373 610.109 4.2331
 3 670.882 3.40366 667.277 5.3416 696.981 5.2312 698.983 7.19441
 3.01 777.402 5.81186 772.261 9.11482 812.584 8.8993 815.741 12.2336
 3.02 919.393 9.76817 912.083 15.3098 967.372 14.8463 972.239 20.371
 3.03 1113.33 16.0838 1102.57 25.1743 1179.79 24.2846 1187.03 33.2598
 3.04 1385.9 26.1121 1369.09 40.7727 1479.78 39.2425 1490.07 53.6643
 3.05 1781.67 42.1839 1753.5 65.6298 1917.33 63.2175 1930.97 86.348
 3.06 2376.49 68.4077 2326.4 105.919 2577.08 102.361 2593.11 139.684
 3.07 3296.01 111.943 3205.45 172.46 3596.82 167.293 3612.09 228.155
 3.08 4712.36 183.728 4565.09 282.73 5153.68 273.797 5169.74 373.555
 3.09 6680.74 291.934 6537.17 455.108 7248.56 431.444 7315.32 590.642
 3.1 8633.33 414.681 8724.32 668.903 9122.26 598.378 9346.25 824.573
 3.11 9392.76 485.83 9730.23 809.6 9505.93 666.972 9698.17 918.42
 3.12 8662.54 470.739 8744.53 782.998 8403.84 607.982 8164.76 821.729
 3.13 7045.39 397.233 6727.49 640.233 6672.57 492.054 6130.24 649.651
 3.14 5209.24 305.216 4851.6 480.148 4921.23 373.195 4442.34 487.662
 3.15 3743.63 225.689 3512.07 352.524 3567.1 277.557 3256.37 362.714
 3.16 2757.31 167.175 2630.37 261.223 2655.48 208.142 2469.52 272.877
 3.17 2119.97 125.711 2054.05 196.775 2060.68 158.565 1949.19 208.568
 3.18 1705.01 95.9223 1671.96 150.318 1668.85 122.458 1600.26 161.49
 3.19 1431.36 73.8898 1415.78 115.798 1407.36 95.3752 1363.91 125.986
 3.2 1251.46 57.0915 1245.18 89.3761 1233.34 74.4548 1205.1 98.4309
 3.21 1138.1 43.9486 1136.75 68.6505 1122.06 57.889 1103.4 76.5266
 3.22 1076.37 33.4893 1077.6 52.1431 1059.87 44.5501 1047.61 58.8436
 3.23 1059.54 25.1511 1062.1 39.0044 1040.62 33.7768 1032.98 44.5544
 3.24 1087.36 18.6896 1090.57 28.8799 1064.12 25.2763 1060.26 33.3188
 3.25 1166.08 14.1745 1169.54 21.9109 1136.29 19.1241 1136.06 25.2988
 3.26 1310.47 12.0861 1313.7 18.8886 1271.03 15.88 1274.82 21.3315
 3.27 1548.43 13.5752 1550.38 21.6586 1494.5 16.8928 1503.21 23.3679
 3.28 1930.06 21.0367 1928.06 33.9993 1853.46 24.9684 1868.36 35.4207
 3.29 2542.88 39.2884 2530.81 63.4101 2429.55 45.7416 2451.77 65.4994
 3.3 3526.67 77.6145 3494.38 124.272 3354.12 90.1017 3384.13 129.016
 3.31 5025.77 150.833 4976.57 240.313 4772.27 175.953 4814.24 251.284
 3.32 6863.53 267.202 6888.65 429.879 6560.33 316.117 6643.99 450.635
 3.33 8033.05 388.687 8290.27 641.223 7794.39 469.689 7948.7 668.262
 3.34 7528.27 436.558 7923.66 733.424 7402.17 535.946 7559.61 758.62
 3.35 5857.17 395.239 6227.35 667.445 5808.9 489.761 5949.2 690.625
 3.36 4195.9 320.901 4508.17 542.976 4189.63 400.665 4325.96 565.09
 3.37 3009.61 254.047 3262.38 430.481 3021.37 319.253 3145.13 451.202
 3.38 2236.7 203.205 2435.82 344.669 2254.45 256.723 2358.2 363.744
 3.39 1735.23 165.699 1888.63 281.262 1753.9 210.27 1835.09 298.692
 3.4 1404.41 137.674 1517.77 233.85 1421.98 175.379 1479.07 249.756
 3.41 1184.9 116.238 1259.52 197.495 1200.45 148.551 1229.95 212.023
 3.42 1043.7 99.5541 1075.74 168.826 1056.55 127.452 1051.44 182.103
 3.43 959.392 86.6184 943.553 145.604 968.716 110.645 921.582 157.704
 3.44 902.003 76.6997 849.109 126.33 907.197 97.1056 827.587 137.257
 3.45 836.988 68.3186 783.979 109.956 839.22 85.5357 763.127 119.717
 3.46 772.77 60.2255 743.48 95.6936 773.837 74.9592 724.459 104.417
 3.47 734.701 52.4755 727.074 83.0005 734.644 65.2437 709.316 90.8279
 3.48 732.756 45.3478 738.805 71.5995 730.169 56.409 720.16 78.5874
 3.49 773.744 39.0097 787.917 61.4972 766.149 48.4968 765.141 67.6268
 3.5 872.563 33.8015 892.189 53.1872 855.973 41.8014 860.413 58.3578
 3.51 1057.55 30.7133 1082.36 48.2622 1026.47 37.3089 1034.79 52.2277
 3.52 1362.16 32.118 1394.73 50.5487 1316.77 37.5503 1329.17 52.929
 3.53 1749.64 41.3906 1796.34 65.6016 1730.54 47.1352 1749.85 67.1482
 3.54 1969.56 55.9969 2031.48 89.6749 2075.93 67.1395 2107.79 96.3618
 3.55 1820.12 63.1997 1884.39 101.805 2032.28 83.1325 2077.39 119.555
 3.56 1548.95 59.6638 1612.29 96.1306 1731.53 83.1332 1783.12 119.588
 3.57 1413.48 53.1475 1480.6 85.506 1515.98 75.4313 1570.98 108.621
 3.58 1471.93 50.1562 1551.3 80.7704 1493.97 70.6009 1556.11 102.014
 3.59 1661.15 55.0582 1764.72 89.3631 1592.21 74.536 1665.49 108.381
 3.6 1742.51 66.0688 1868.76 108.688 1581.06 83.7246 1655.89 122.375
 3.61 1542.37 71.8095 1653.35 119.06 1359.56 85.9405 1415.2 125.743
 3.62 1245.39 68.8298 1315.87 113.582 1103.1 79.846 1134.58 116.547
 3.63 1000.9 62.1305 1046.95 101.499 912.127 70.994 932.556 103.295
 3.64 833.587 54.6397 872.798 88.6256 794.218 62.0957 814.016 90.2066
 3.65 742.019 47.6189 779.009 76.9125 745.554 54.1336 766.38 78.6298
 3.66 716.657 41.6194 751.841 67.0076 761.273 47.6073 782.212 69.1982
 3.67 750.068 36.9555 783.968 59.3179 840.389 42.9314 860.69 62.505
 3.68 835.22 33.8824 868.795 54.2162 992.934 41.0315 1013.01 59.9432
 3.69 974.951 32.6654 1009.83 52.0961 1214.5 44.2412 1237.22 64.9675
 3.7 1186.3 34.9766 1227.02 55.6548 1393.5 53.5609 1423.68 78.8627
 3.71 1388.99 42.6802 1442.45 68.0428 1373.54 62.7319 1411.82 92.2998
 3.72 1385.07 51.0975 1450.22 81.9164 1198.39 65.3083 1239.69 96.1332
 3.73 1186.48 52.8204 1251.57 84.9825 1008.56 61.7059 1047.76 90.9696
 3.74 1001.45 49.0275 1059.5 78.8602 900.663 55.6511 935.923 82.1716
 3.75 931.704 44.3763 983.63 71.1844 904.964 50.6716 937.204 74.9715
 3.76 983.332 42.0928 1033.68 67.2796 1012.57 49.7282 1044.76 73.8016
 3.77 1104.21 44.518 1159.57 71.0561 1142.69 55.0621 1179.61 81.8648
 3.78 1154.34 50.9537 1219.24 81.6531 1140.05 63.5087 1184.02 94.2941
 3.79 1029.05 55.9105 1098.12 90.1627 975.81 67.9184 1022.6 100.768
 3.8 809.201 55.6036 872.65 89.9788 763.867 66.4172 807.986 98.6195
 3.81 620.038 51.9409 674.378 84.0613 593.026 61.824 632.456 91.9169
 3.82 492.389 47.5798 538.8 76.883 477.522 56.7058 512.593 84.4156
 3.83 411.725 43.554 452.171 70.2256 402.736 52.0153 434.287 77.5243
 3.84 362.286 40.0689 398.385 64.4576 354.838 47.9064 383.613 71.4799
 3.85 334.493 37.1009 367.473 59.5479 325.969 44.3245 352.552 66.2075
 3.86 323.954 34.6526 354.797 55.4988 312.723 41.238 337.609 61.663
 3.87 324.55 32.8259 353.986 52.4705 312.573 38.7123 336.207 57.9478
 3.88 322.699 31.5044 350.882 50.2696 319.405 36.79 342.112 55.1288
 3.89 314.377 30.2751 341.184 48.2247 326.934 35.3489 348.914 53.0249
 3.9 305.803 29.0937 331.374 46.2638 330.324 34.2663 351.687 51.4538
 3.91 294.82 27.9498 319.173 44.3691 325.556 33.3091 346.226 50.0662
 3.92 283.772 26.7086 306.903 42.323 312.88 32.2575 332.685 48.5326
 3.93 278.126 25.4381 300.184 40.2379 297.325 30.9116 316.063 46.5509
 3.94 278.431 24.2048 299.438 38.2203 289.694 29.3649 307.368 44.2607
 3.95 287 23.0448 307.001 36.3219 293.667 27.9108 310.5 42.1045
 3.96 305.567 22.0814 324.886 34.7345 307.852 26.6814 324.099 40.2831
 3.97 333.072 21.4685 352.244 33.7037 332.267 25.8804 348.223 39.1053
 3.98 361.378 21.3388 380.858 33.4421 356.654 25.6748 372.585 38.8253
 3.99 376.316 21.5759 396.176 33.7662 365.37 25.8694 381.407 39.1529
 4 365.634 21.7434 385.444 33.9865 347.817 25.8256 363.697 39.1247
