 Energy(eV)     mag     no mag
 1 85.3979 10.1063 87.8718 12.7757
 1.01 86.7033 10.6402 89.3502 13.5041
 1.02 88.093 11.1963 90.9239 14.2664
 1.03 89.5691 11.7755 92.5955 15.064
 1.04 91.1335 12.3785 94.3677 15.8985
 1.05 92.7885 13.0063 96.2431 16.7713
 1.06 94.5363 13.6599 98.2248 17.6843
 1.07 96.3797 14.3402 100.316 18.639
 1.08 98.3213 15.0483 102.52 19.6372
 1.09 100.364 15.7852 104.841 20.6809
 1.1 102.511 16.5523 107.283 21.772
 1.11 104.765 17.3506 109.849 22.9126
 1.12 107.131 18.1814 112.545 24.1049
 1.13 109.611 19.0461 115.374 25.3512
 1.14 112.21 19.9461 118.342 26.6538
 1.15 114.933 20.8828 121.454 28.0153
 1.16 117.783 21.8579 124.715 29.4385
 1.17 120.765 22.873 128.132 30.926
 1.18 123.886 23.9299 131.71 32.4809
 1.19 127.149 25.0303 135.457 34.1063
 1.2 130.561 26.1763 139.38 35.8055
 1.21 134.128 27.3699 143.485 37.582
 1.22 137.857 28.6133 147.782 39.4394
 1.23 141.755 29.9088 152.277 41.3816
 1.24 145.828 31.2588 156.981 43.4128
 1.25 150.085 32.666 161.903 45.5374
 1.26 154.535 34.1332 167.053 47.7598
 1.27 159.186 35.6631 172.441 50.0851
 1.28 164.047 37.2591 178.08 52.5183
 1.29 169.13 38.9243 183.981 55.0651
 1.3 174.444 40.6623 190.157 57.7312
 1.31 180.002 42.4769 196.622 60.523
 1.32 185.815 44.372 203.391 63.4469
 1.33 191.897 46.352 210.479 66.51
 1.34 198.262 48.4214 217.904 69.72
 1.35 204.925 50.585 225.683 73.0846
 1.36 211.903 52.8482 233.835 76.6126
 1.37 219.211 55.2164 242.381 80.313
 1.38 226.87 57.6957 251.342 84.1957
 1.39 234.899 60.2925 260.743 88.2709
 1.4 243.319 63.0137 270.608 92.5501
 1.41 252.154 65.8666 280.965 97.0451
 1.42 261.427 68.8592 291.842 101.769
 1.43 271.166 72.0001 303.271 106.735
 1.44 281.4 75.2986 315.285 111.959
 1.45 292.159 78.7645 327.921 117.456
 1.46 303.478 82.4087 341.218 123.244
 1.47 315.391 86.2427 355.218 129.342
 1.48 327.939 90.2792 369.966 135.769
 1.49 341.164 94.5318 385.513 142.547
 1.5 355.112 99.0154 401.911 149.701
 1.51 369.834 103.746 419.22 157.255
 1.52 385.384 108.741 437.501 165.237
 1.53 401.821 114.02 456.824 173.678
 1.54 419.212 119.603 477.263 182.61
 1.55 437.625 125.513 498.901 192.07
 1.56 457.141 131.776 521.826 202.096
 1.57 477.843 138.417 546.137 212.732
 1.58 499.826 145.468 571.939 224.023
 1.59 523.193 152.962 599.351 236.023
 1.6 548.056 160.934 628.502 248.786
 1.61 574.542 169.424 659.533 262.376
 1.62 602.79 178.477 692.603 276.862
 1.63 632.953 188.143 727.884 292.319
 1.64 665.201 198.474 765.57 308.831
 1.65 699.726 209.533 805.873 326.492
 1.66 736.739 221.387 849.031 345.405
 1.67 776.478 234.111 895.309 365.687
 1.68 819.209 247.79 945.004 387.466
 1.69 865.231 262.519 998.446 410.887
 1.7 914.882 278.406 1056.01 436.112
 1.71 968.543 295.571 1118.11 463.326
 1.72 1026.65 314.152 1185.23 492.733
 1.73 1089.68 334.305 1257.9 524.569
 1.74 1158.21 356.208 1336.73 559.098
 1.75 1232.88 380.064 1422.42 596.623
 1.76 1314.43 406.107 1515.77 637.49
 1.77 1403.7 434.606 1617.67 682.095
 1.78 1501.69 465.873 1729.2 730.896
 1.79 1609.55 500.272 1851.55 784.42
 1.8 1728.61 538.224 1986.16 843.28
 1.81 1860.47 580.227 2134.65 908.192
 1.82 2006.98 626.866 2298.97 979.991
 1.83 2170.35 678.836 2481.39 1059.66
 1.84 2353.24 736.966 2684.6 1148.38
 1.85 2558.82 802.248 2911.8 1247.51
 1.86 2790.94 875.885 3166.84 1358.73
 1.87 3054.31 959.338 3454.33 1484.04
 1.88 3354.69 1054.4 3779.89 1625.84
 1.89 3699.25 1163.28 4150.37 1787.11
 1.9 4096.95 1288.76 4574.2 1971.48
 1.91 4559.11 1434.31 5061.86 2183.45
 1.92 5100.22 1604.36 5626.47 2428.67
 1.93 5739.01 1804.64 6284.59 2714.26
 1.94 6500.06 2042.58 7057.37 3049.29
 1.95 7416.02 2328.04 7972.1 3445.45
 1.96 8531.04 2674.22 9064.38 3917.94
 1.97 9905.83 3099.13 10381.2 4486.82
 1.98 11625.4 3627.74 11985.3 5178.74
 1.99 13811.2 4295.26 13961.5 6029.65
 2 16640.7 5152.26 16425.9 7088.38
 2.01 20377.4 6272.37 19538.8 8421.82
 2.02 25419.6 7763.39 23522.6 10121.6
 2.03 32366 9780.29 28684.8 12311.4
 2.04 42074.1 12527.1 35441.8 15151.8
 2.05 55545.2 16193 44326.1 18829.3
 2.06 73078.8 20672 55940.7 23511.7
 2.07 92052 25031 70810.4 29287.2
 2.08 106847 28016 88874.6 36162.7
 2.09 116725 30186.8 107417 43355.6
 2.1 122378 31680.5 119347 47967.5
 2.11 116979 30131.8 118140 47055.1
 2.12 100672 25499.9 105057 41092.2
 2.13 80889 20134.9 87894.2 33413.6
 2.14 64365.3 15752.7 73475 27102.6
 2.15 53467 12894.7 63034.9 23132.5
 2.16 46189.5 11078.8 53488.9 20127.8
 2.17 39816.7 9676.68 44105 17118.7
 2.18 33103.5 8368.7 35971.5 14330.3
 2.19 26596.5 7076.62 29388.5 11921.1
 2.2 21306.8 5918.92 24245.1 9939.32
 2.21 17354.5 4968.66 20264.3 8353.96
 2.22 14419.6 4211.91 17160.1 7092.44
 2.23 12195.4 3609.58 14706.3 6082.57
 2.24 10468.4 3125.5 12738.4 5265.94
 2.25 9097.62 2731.66 11138.2 4598.19
 2.26 7989.1 2407.29 9820.62 4046.21
 2.27 7078.3 2137.07 8723.33 3585.23
 2.28 6319.78 1909.59 7800.12 3196.58
 2.29 5680.67 1716.29 7016.19 2866.05
 2.3 5136.71 1550.61 6344.98 2582.69
 2.31 4669.56 1407.51 5765.91 2338.01
 2.32 4265.2 1283.04 5262.89 2125.28
 2.33 3912.7 1174.07 4823.17 1939.21
 2.34 3603.42 1078.11 4436.57 1775.51
 2.35 3330.5 993.149 4094.87 1630.74
 2.36 3088.39 917.544 3791.36 1502.09
 2.37 2872.56 849.953 3520.57 1387.24
 2.38 2679.31 789.266 3277.94 1284.28
 2.39 2505.57 734.559 3059.7 1191.6
 2.4 2348.78 685.055 2862.69 1107.89
 2.41 2206.78 640.103 2684.23 1032
 2.42 2077.76 599.148 2522.07 962.98
 2.43 1960.17 561.719 2374.29 900.02
 2.44 1852.71 527.41 2239.23 842.419
 2.45 1754.23 495.874 2115.49 789.576
 2.46 1663.77 466.81 2001.83 740.973
 2.47 1580.48 439.957 1897.2 696.159
 2.48 1503.64 415.087 1800.67 654.743
 2.49 1432.58 392 1711.43 616.38
 2.5 1366.77 370.523 1628.79 580.77
 2.51 1305.7 350.501 1552.11 547.649
 2.52 1248.95 331.797 1480.86 516.782
 2.53 1196.12 314.292 1414.54 487.962
 2.54 1146.89 297.878 1352.72 461.005
 2.55 1100.94 282.458 1295.03 435.747
 2.56 1058.01 267.948 1241.12 412.042
 2.57 1017.87 254.271 1190.7 389.757
 2.58 980.291 241.358 1143.48 368.776
 2.59 945.094 229.147 1099.23 348.992
 2.6 912.104 217.582 1057.73 330.31
 2.61 881.171 206.613 1018.78 312.643
 2.62 852.158 196.192 982.211 295.914
 2.63 824.943 186.279 947.868 280.05
 2.64 799.419 176.836 915.608 264.988
 2.65 775.488 167.828 885.306 250.668
 2.66 753.067 159.223 856.851 237.038
 2.67 732.08 150.993 830.143 224.048
 2.68 712.463 143.11 805.096 211.652
 2.69 694.161 135.551 781.635 199.811
 2.7 677.127 128.293 759.694 188.485
 2.71 661.324 121.315 739.22 177.642
 2.72 646.726 114.599 720.17 167.248
 2.73 633.317 108.127 702.515 157.274
 2.74 621.093 101.883 686.238 147.694
 2.75 610.067 95.8524 671.342 138.482
 2.76 600.276 90.0211 657.856 129.617
 2.77 591.788 84.3768 645.847 121.077
 2.78 584.728 78.9074 635.447 112.843
 2.79 579.273 73.6011 626.856 104.897
 2.8 575.501 68.446 620.203 97.2154
 2.81 572.829 63.4341 614.898 89.7669
 2.82 570.154 58.5671 609.474 82.5319
 2.83 567.907 53.8412 604.062 75.5446
 2.84 567.384 49.2474 600.289 68.8173
 2.85 569.097 44.7806 598.901 62.3277
 2.86 573.155 40.4393 600.009 56.0603
 2.87 579.685 36.2245 603.689 50.0107
 2.88 588.915 32.1398 610.124 44.1809
 2.89 601.179 28.1921 619.612 38.579
 2.9 616.927 24.393 632.565 33.219
 2.91 636.736 20.7595 649.528 28.1224
 2.92 661.351 17.3163 671.2 23.321
 2.93 691.726 14.0985 698.484 18.8598
 2.94 729.097 11.1551 732.548 14.8018
 2.95 775.079 8.55492 774.916 11.2356
 2.96 831.81 6.3948 827.6 8.28498
 2.97 902.163 4.81187 893.295 6.12455
 2.98 990.057 4.00271 975.667 5.00302
 2.99 1100.95 4.25318 1079.79 5.27941
 3 1242.59 5.98648 1212.85 7.4809
