 Energy(eV)     mag     no mag
 1 16.0905 0.600888 16.5122 0.657821
 1.01 16.2967 0.63423 16.7224 0.695561
 1.02 16.5169 0.669081 16.947 0.735102
 1.03 16.7515 0.705505 17.1862 0.776524
 1.04 17.0008 0.743564 17.4405 0.819909
 1.05 17.2651 0.783327 17.71 0.865343
 1.06 17.5447 0.824864 17.9952 0.912917
 1.07 17.8401 0.868249 18.2966 0.962725
 1.08 18.1515 0.91356 18.6144 1.01487
 1.09 18.4796 0.960876 18.9492 1.06945
 1.1 18.8246 1.01028 19.3015 1.12658
 1.11 19.1873 1.06187 19.6718 1.18638
 1.12 19.568 1.11573 20.0607 1.24896
 1.13 19.9673 1.17197 20.4687 1.31446
 1.14 20.3859 1.23068 20.8966 1.383
 1.15 20.8245 1.29197 21.3449 1.45473
 1.16 21.2836 1.35596 21.8145 1.5298
 1.17 21.7641 1.42277 22.3061 1.60837
 1.18 22.2667 1.49252 22.8204 1.69059
 1.19 22.7922 1.56534 23.3585 1.77665
 1.2 23.3417 1.64139 23.9212 1.86673
 1.21 23.9159 1.7208 24.5094 1.96103
 1.22 24.5158 1.80372 25.1244 2.05974
 1.23 25.1427 1.89034 25.767 2.16309
 1.24 25.7975 1.98081 26.4387 2.27131
 1.25 26.4814 2.07533 27.1405 2.38463
 1.26 27.1959 2.17409 27.8738 2.50333
 1.27 27.9421 2.27729 28.6401 2.62766
 1.28 28.7216 2.38515 29.4409 2.75793
 1.29 29.5359 2.49791 30.2778 2.89443
 1.3 30.3866 2.61581 31.1524 3.0375
 1.31 31.2754 2.73911 32.0666 3.18748
 1.32 32.2043 2.86808 33.0224 3.34474
 1.33 33.1752 3.00304 34.0219 3.50968
 1.34 34.1901 3.14427 35.0671 3.68271
 1.35 35.2515 3.29213 36.1606 3.86428
 1.36 36.3616 3.44697 37.3047 4.05486
 1.37 37.523 3.60916 38.5023 4.25497
 1.38 38.7386 3.77911 39.7562 4.46514
 1.39 40.0112 3.95726 41.0694 4.68597
 1.4 41.3439 4.14406 42.4454 4.91806
 1.41 42.7403 4.34002 43.8875 5.16208
 1.42 44.2039 4.54567 45.3997 5.41875
 1.43 45.7386 4.76157 46.986 5.68884
 1.44 47.3485 4.98834 48.6508 5.97317
 1.45 49.0383 5.22664 50.3988 6.27263
 1.46 50.8128 5.47717 52.2352 6.58816
 1.47 52.6772 5.74069 54.1653 6.9208
 1.48 54.6371 6.01803 56.1952 7.27166
 1.49 56.6987 6.31008 58.3311 7.64193
 1.5 58.8686 6.61778 60.5801 8.0329
 1.51 61.154 6.94219 62.9496 8.44599
 1.52 63.5625 7.28441 65.4477 8.88271
 1.53 66.1026 7.64568 68.0833 9.34471
 1.54 68.7835 8.0273 70.8659 9.83378
 1.55 71.6151 8.43073 73.806 10.3519
 1.56 74.6083 8.85753 76.9148 10.9011
 1.57 77.775 9.30941 80.2049 11.4839
 1.58 81.128 9.78823 83.6898 12.1026
 1.59 84.6817 10.296 87.3843 12.7601
 1.6 88.4515 10.8351 91.3047 13.4595
 1.61 92.4545 11.4078 95.4688 14.204
 1.62 96.7096 12.0169 99.8964 14.9974
 1.63 101.238 12.6654 104.609 15.8436
 1.64 106.061 13.3565 109.631 16.7473
 1.65 111.206 14.0939 114.988 17.7133
 1.66 116.699 14.8816 120.71 18.7472
 1.67 122.574 15.7241 126.829 19.855
 1.68 128.863 16.6263 133.383 21.0435
 1.69 135.606 17.5939 140.41 22.3203
 1.7 142.846 18.6329 147.957 23.6939
 1.71 150.633 19.7503 156.074 25.1737
 1.72 159.021 20.954 164.819 26.7706
 1.73 168.071 22.2528 174.255 28.4965
 1.74 177.853 23.6565 184.456 30.365
 1.75 188.448 25.1766 195.504 32.3915
 1.76 199.944 26.8256 207.493 34.5937
 1.77 212.445 28.6184 220.53 36.9916
 1.78 226.07 30.5716 234.737 39.6081
 1.79 240.953 32.7044 250.256 42.4696
 1.8 257.252 35.039 267.249 45.6066
 1.81 275.149 37.6011 285.904 49.0542
 1.82 294.855 40.4206 306.441 52.8535
 1.83 316.618 43.5323 329.116 57.0524
 1.84 340.73 46.9772 354.229 61.7073
 1.85 367.534 50.8036 382.137 66.8845
 1.86 397.442 55.0691 413.26 72.663
 1.87 430.943 59.8421 448.103 79.1369
 1.88 468.626 65.205 487.271 86.4194
 1.89 511.208 71.2574 531.496 94.6475
 1.9 559.563 78.1207 581.671 103.988
 1.91 614.766 85.9441 638.893 114.645
 1.92 678.156 94.9123 704.519 126.874
 1.93 751.41 105.256 780.247 140.99
 1.94 836.655 117.268 868.221 157.393
 1.95 936.616 131.319 971.176 176.594
 1.96 1054.83 147.892 1092.64 199.252
 1.97 1195.97 167.615 1237.25 226.226
 1.98 1366.24 191.325 1411.12 258.657
 1.99 1574.12 220.151 1622.51 298.082
 2 1831.31 255.64 1882.74 346.602
 2.01 2154.41 299.961 2207.63 407.149
 2.02 2567.39 356.209 2619.7 483.896
 2.03 3105.92 428.915 3151.81 582.915
 2.04 3824.49 524.866 3852.99 713.248
 2.05 4808.84 654.482 4798.31 888.688
 2.06 6197.62 834.116 6105.26 1130.74
 2.07 8217.59 1089.62 7960.87 1473.38
 2.08 11224.8 1460.5 10661.2 1969.82
 2.09 15662.5 1997.88 14645 2697.21
 2.1 21648.2 2733.86 20403.6 3737.18
 2.11 28388.7 3608.82 27837 5057.27
 2.12 34188.9 4344.1 34502.8 6198.6
 2.13 35322.6 4384.3 35536 6279.21
 2.14 30206.4 3632.2 30205.6 5201.72
 2.15 23183.2 2701.14 23346.3 3876.23
 2.16 17755.5 2021.24 18176.3 2912.41
 2.17 14161.3 1612.59 14603 2330.07
 2.18 11407.6 1320.33 11559.3 1900.72
 2.19 9044.3 1069.71 8938.6 1525.64
 2.2 7030.34 857.702 6903.99 1215.51
 2.21 5452.3 687.115 5413.77 973.524
 2.22 4304.59 556.172 4338.42 790.334
 2.23 3479.45 457.041 3551.38 651.929
 2.24 2873.85 381.372 2961.5 546.033
 2.25 2417.17 322.687 2508.75 463.624
 2.26 2064.01 276.391 2153.77 398.387
 2.27 1784.92 239.274 1870.25 345.92
 2.28 1560.27 209.079 1640.15 303.116
 2.29 1376.6 184.192 1450.79 267.746
 2.3 1224.38 163.44 1293.05 238.184
 2.31 1096.75 145.955 1160.24 213.223
 2.32 988.627 131.085 1047.33 191.952
 2.33 896.193 118.331 950.522 173.674
 2.34 816.526 107.309 866.881 157.85
 2.35 747.36 97.7179 794.111 144.055
 2.36 686.915 89.3182 730.398 131.955
 2.37 633.774 81.9195 674.292 121.279
 2.38 586.799 75.3676 624.625 111.811
 2.39 545.067 69.537 580.444 103.371
 2.4 507.823 64.3245 540.966 95.8146
 2.41 474.443 59.6448 505.547 89.02
 2.42 444.411 55.4267 473.646 82.8863
 2.43 417.292 51.6107 444.813 77.3287
 2.44 392.723 48.1464 418.666 72.2756
 2.45 370.395 44.9912 394.884 67.6663
 2.46 350.045 42.1086 373.19 63.4487
 2.47 331.448 39.4676 353.348 59.5784
 2.48 314.411 37.0411 335.156 56.017
 2.49 298.767 34.8059 318.438 52.7312
 2.5 284.372 32.742 303.041 49.6922
 2.51 271.099 30.8316 288.834 46.8748
 2.52 258.84 29.0594 275.699 44.2568
 2.53 247.496 27.4119 263.535 41.819
 2.54 236.985 25.877 252.254 39.5441
 2.55 227.231 24.4444 241.775 37.4171
 2.56 218.169 23.1046 232.029 35.4245
 2.57 209.74 21.8493 222.955 33.5543
 2.58 201.892 20.6712 214.498 31.7959
 2.59 194.58 19.5635 206.608 30.1398
 2.6 187.764 18.5204 199.243 28.5773
 2.61 181.405 17.5365 192.363 27.1008
 2.62 175.474 16.6069 185.935 25.7033
 2.63 169.939 15.7274 179.928 24.3786
 2.64 164.777 14.894 174.314 23.1209
 2.65 159.964 14.1031 169.069 21.9251
 2.66 155.481 13.3515 164.172 20.7865
 2.67 151.31 12.6363 159.603 19.7009
 2.68 147.435 11.9547 155.346 18.6643
 2.69 143.845 11.3043 151.388 17.6731
 2.7 140.528 10.6828 147.716 16.7242
 2.71 137.475 10.0882 144.319 15.8144
 2.72 134.68 9.51858 141.191 14.9411
 2.73 132.14 8.97217 138.326 14.1018
 2.74 129.853 8.44739 135.721 13.294
 2.75 127.823 7.94275 133.378 12.5157
 2.76 126.057 7.45691 131.301 11.7649
 2.77 124.574 6.98865 129.503 11.0397
 2.78 123.406 6.53691 128.008 10.3388
 2.79 122.603 6.10091 126.853 9.6607
 2.8 122.223 5.68043 126.088 9.00495
 2.81 122.205 5.27584 125.686 8.37166
 2.82 122.171 4.88617 125.392 7.75965
 2.83 121.867 4.5074 124.964 7.16431
 2.84 121.684 4.13742 124.661 6.58291
 2.85 121.976 3.77717 124.791 6.01627
 2.86 122.815 3.42746 125.437 5.46532
 2.87 124.196 3.08853 126.607 4.93034
 2.88 126.136 2.76044 128.325 4.41148
 2.89 128.679 2.44339 130.637 3.90916
 2.9 131.894 2.13783 133.615 3.42414
 2.91 135.88 1.84453 137.356 2.95776
 2.92 140.761 1.56474 141.987 2.51206
 2.93 146.703 1.30027 147.668 2.08999
 2.94 153.915 1.05374 154.607 1.69581
 2.95 162.668 0.828874 163.074 1.33549
 2.96 173.32 0.630912 173.419 1.01743
 2.97 186.342 0.467268 186.108 0.753488
 2.98 202.369 0.348491 201.767 0.560492
 2.99 222.269 0.289757 221.248 0.46261
 3 247.25 0.313227 245.741 0.495071
