 Energy(eV)     Sca_U     Sca_D
 495.937 72.9919 12115.3
 494.453 76.8846 12548.3
 492.979 81.0563 13000.7
 491.513 85.5308 13473.3
 490.056 90.3339 13967.4
 488.607 95.4939 14484
 487.168 101.042 15024.2
 485.736 107.012 15589.4
 484.313 113.441 16180.9
 482.898 120.37 16799.9
 481.492 127.843 17448
 480.093 135.91 18126.6
 478.703 144.623 18837.4
 477.321 154.041 19582
 475.947 164.228 20362.1
 474.58 175.254 21179.6
 473.222 187.194 22036.4
 471.871 200.131 22934.4
 470.528 214.154 23875.8
 469.193 229.361 24862.7
 467.865 245.854 25897.5
 466.544 263.748 26982.7
 465.231 283.162 28120.8
 463.926 304.224 29314.8
 462.627 327.069 30567.8
 461.336 351.839 31883.2
 460.052 378.684 33265.1
 458.776 407.757 34718.2
 457.506 439.215 36247.7
 456.243 473.218 37860.3
 454.988 509.924 39564
 453.739 549.494 41368.7
 452.497 592.083 43286.4
 451.262 637.842 45332.3
 450.033 686.922 47524.8
 448.811 739.467 49885.8
 447.596 795.623 52441
 446.388 855.533 55218.3
 445.185 919.334 58245.4
 443.99 987.134 61543.1
 442.801 1058.97 65115.2
 441.618 1134.68 68930.8
 440.441 1213.77 72898.6
 439.271 1295.06 76838.5
 438.107 1376.42 80459.5
 436.949 1454.49 83369.8
 435.797 1524.84 85145.4
 434.651 1582.76 85461.9
 433.511 1624.52 84235.5
 432.377 1648.53 81686.1
 431.249 1655.62 78267.5
 430.127 1648.38 74510.6
 429.011 1630.02 70877.5
 427.9 1603.5 67686.7
 426.796 1571.13 65109.6
 425.697 1534.51 63204.1
 424.603 1494.74 61953.8
 423.515 1452.6 61301
 422.433 1408.7 61167.5
 421.356 1363.6 61468
 420.285 1317.94 62116.9
 419.219 1272.42 63032.5
 418.159 1227.87 64139.5
 417.104 1185.27 65371.3
 416.054 1145.73 66671.6
 415.01 1110.57 67997
 413.97 1081.22 69318.4
 412.936 1059.35 70623.3
 411.907 1046.75 71917
 410.884 1045.31 73221.8
 409.865 1056.84 74573.3
 408.851 1082.63 76009.4
 407.843 1122.58 77543.5
 406.839 1173.67 79114.9
 405.84 1227.91 80510.7
 404.846 1270.91 81296
 403.857 1283.85 80872.6
 402.873 1250.99 78809.6
 401.893 1168.76 75256.5
 400.919 1048.02 70861.3
 399.949 908.032 66238.8
 398.984 767.632 61711
 398.023 639.489 57399.2
 397.067 529.246 53335.7
 396.115 437.658 49511.4
 395.169 363.04 45896.3
 394.226 302.891 42452.6
 393.288 254.705 39144.4
 392.355 216.262 35944.9
 391.426 185.665 32843.5
 390.501 161.244 29853.6
 389.581 141.45 27020.1
 388.665 124.879 24422.2
 387.753 110.535 22179.3
 386.846 98.0807 20489.4
 385.943 87.6132 19711.6
 385.044 79.0561 20374.3
 384.149 72.1473 22776.5
 383.259 67.9088 26167.7
 382.372 69.8785 28863.9
 381.49 82.2485 29895.4
 380.611 107.436 29711.2
 379.737 145.572 29369.7
 378.867 193.814 29858.5
 378 245.134 31833.4
 377.138 289.391 35387.4
 376.28 317.613 39853.9
 375.425 325.488 43964.9
 374.574 314.04 46533.1
 373.728 288.871 47169.6
 372.885 257.354 46272.3
 372.045 225.312 44485.3
 371.21 195.901 42317.3
 370.378 170.243 40068.2
 369.55 148.379 37885.5
 368.726 129.915 35830
 367.905 114.34 33918.7
 367.088 101.164 32148.3
 366.275 89.9673 30507
 365.465 80.4022 28980.3
 364.659 72.1844 27553.1
 363.857 65.0819 26211.2
 363.058 58.9062 24941
 362.262 53.504 23730.3
 361.47 48.7481 22567
 360.681 44.5277 21440.2
 359.896 40.7366 20339.6
 359.114 37.2529 19257
 358.336 33.9036 18189.2
 357.561 30.4073 17144.6
 356.789 26.3457 16153.8
 356.021 21.4056 15267.4
 355.255 16.0732 14512.4
 354.494 11.6376 13873.5
 353.735 8.95692 13434.3
 352.98 8.45093 13437.2
 352.228 10.4999 14074
 351.479 14.5735 15157.8
 350.733 18.967 16107
 349.991 22.1469 16535.4
 349.251 23.6124 16517.9
 348.515 23.6669 16259.6
 347.782 22.8336 15880
 347.051 21.659 15461.3
 346.324 20.6947 15103.5
 345.6 20.2085 14888.5
 344.879 19.951 14772.3
 344.161 19.4982 14606.4
 343.446 18.7507 14313.5
 342.734 17.8527 13924.1
 342.025 16.9303 13503.9
 341.319 16.0041 13120.9
 340.616 15.0036 12835.7
 339.915 13.9076 12668
 339.218 12.9027 12574.9
 338.523 12.1821 12482.2
 337.831 11.732 12335.2
 337.142 11.4036 12120.2
 336.456 11.0697 11855
 335.773 10.7006 11566.5
 335.092 10.318 11277.1
 334.414 9.94688 11002.3
 333.739 9.60138 10750.2
 333.067 9.27821 10517.6
 332.397 8.9679 10293
 331.73 8.6699 10070.5
 331.066 8.38749 9852.19
 330.404 8.11957 9639.55
 329.745 7.86344 9431.62
 329.089 7.61878 9228.41
 328.435 7.38579 9030.62
 327.784 7.16409 8838.7
 327.135 6.95309 8652.81
 326.489 6.75213 8472.9
 325.845 6.56058 8298.84
 325.204 6.3778 8130.44
 324.566 6.20315 7967.46
 323.93 6.03606 7809.64
 323.296 5.87595 7656.71
 322.665 5.72234 7508.43
 322.037 5.57478 7364.56
 321.411 5.43288 7224.89
 320.787 5.29627 7089.24
 320.166 5.16462 6957.41
 319.547 5.03762 6829.25
 318.93 4.91502 6704.59
 318.316 4.79654 6583.28
 317.704 4.68196 6465.19
 317.095 4.57106 6350.19
 316.488 4.46366 6238.16
 315.883 4.35955 6128.97
 315.281 4.25858 6022.53
 314.681 4.1606 5918.73
 314.083 4.06544 5817.47
 313.487 3.97299 5718.67
 312.894 3.88312 5622.23
 312.303 3.7957 5528.08
 311.714 3.71064 5436.13
 311.127 3.62782 5346.32
 310.543 3.54716 5258.58
 309.96 3.46857 5172.82
