 Energy(eV)     EyBz     EyBx     ExBz     ExBy
 2.8 11.2036 2.35374 11.288 2.49818 13.6025 2.97666 13.6475 3.03559
 2.81 11.5082 2.42118 11.5952 2.57078 13.9949 3.0676 14.0414 3.12874
 2.82 11.8239 2.49098 11.9135 2.64596 14.4025 3.16199 14.4506 3.22544
 2.83 12.1511 2.56326 12.2434 2.72384 14.8262 3.26001 14.8759 3.32586
 2.84 12.4905 2.63814 12.5855 2.80453 15.2666 3.36184 15.318 3.43019
 2.85 12.8426 2.71573 12.9404 2.88818 15.7247 3.46766 15.7779 3.53863
 2.86 13.208 2.79616 13.3088 2.97492 16.2015 3.5777 16.2564 3.6514
 2.87 13.5875 2.87957 13.6912 3.0649 16.6979 3.69216 16.7547 3.76872
 2.88 13.9817 2.96611 14.0884 3.15829 17.2149 3.81128 17.2737 3.89083
 2.89 14.3913 3.05593 14.5011 3.25525 17.7538 3.93532 17.8146 4.01799
 2.9 14.8173 3.1492 14.9302 3.35596 18.3158 4.06454 18.3787 4.15047
 2.91 15.2603 3.24608 15.3765 3.46062 18.9021 4.19923 18.9672 4.28857
 2.92 15.7215 3.34677 15.8409 3.56942 19.5142 4.33969 19.5816 4.43261
 2.93 16.2016 3.45147 16.3244 3.68258 20.1536 4.48626 20.2233 4.58292
 2.94 16.7018 3.56038 16.828 3.80033 20.8218 4.63928 20.894 4.73987
 2.95 17.2232 3.67373 17.3529 3.92293 21.5206 4.79914 21.5953 4.90384
 2.96 17.7669 3.79177 17.9001 4.05063 22.252 4.96624 22.3293 5.07525
 2.97 18.3342 3.91474 18.471 4.18371 23.0178 5.14101 23.0978 5.25456
 2.98 18.9266 4.04294 19.0669 4.32249 23.8202 5.32394 23.9031 5.44224
 2.99 19.5454 4.17664 19.6893 4.46727 24.6617 5.51552 24.7475 5.63883
 3 20.1922 4.31618 20.3398 4.61841 25.5446 5.71631 25.6335 5.84488
 3.01 20.8688 4.46189 21.02 4.77628 26.4718 5.9269 26.5639 6.061
 3.02 21.5769 4.61413 21.7317 4.94128 27.4462 6.14792 27.5417 6.28785
 3.03 22.3185 4.77331 22.4769 5.11383 28.4711 6.38008 28.5699 6.52615
 3.04 23.0957 4.93984 23.2577 5.29441 29.5499 6.62413 29.6523 6.77667
 3.05 23.9109 5.11417 24.0763 5.48351 30.6864 6.88089 30.7925 7.04026
 3.06 24.7664 5.29682 24.9352 5.68167 31.8848 7.15125 31.9947 7.31783
 3.07 25.665 5.4883 25.8371 5.88948 33.1495 7.43617 33.2635 7.61039
 3.08 26.6095 5.6892 26.7848 6.10756 34.4856 7.73673 34.6037 7.91901
 3.09 27.6032 5.90013 27.7813 6.33659 35.8985 8.05408 36.0208 8.2449
 3.1 28.6494 6.12179 28.8302 6.57732 37.394 8.38949 37.5207 8.58935
 3.11 29.7518 6.35489 29.935 6.83056 38.9786 8.74434 39.11 8.95381
 3.12 30.9146 6.60026 31.0998 7.09717 40.6597 9.12017 40.7958 9.33983
 3.13 32.1422 6.85875 32.3289 7.37812 42.4449 9.51867 42.5859 9.74915
 3.14 33.4394 7.13133 33.6271 7.67443 44.3432 9.94167 44.4892 10.1837
 3.15 34.8115 7.41903 34.9997 7.98726 46.364 10.3912 46.5153 10.6455
 3.16 36.2645 7.723 36.4523 8.31784 48.5182 10.8697 48.6748 11.137
 3.17 37.8046 8.04448 37.9912 8.66755 50.8177 11.3794 50.9797 11.6608
 3.18 39.4391 8.38485 39.6233 9.03788 53.2756 11.9233 53.4433 12.2196
 3.19 41.1756 8.74563 41.3563 9.43048 55.9069 12.5045 56.0803 12.8168
 3.2 43.0229 9.12847 43.1985 9.84717 58.7281 13.1265 58.9072 13.4559
 3.21 44.9905 9.53522 45.1592 10.29 61.7578 13.7931 61.9428 14.1409
 3.22 47.089 9.96792 47.2488 10.7611 65.0171 14.5088 65.2079 14.8764
 3.23 49.3302 10.4288 49.4787 11.263 68.5295 15.2785 68.7261 15.6674
 3.24 51.7274 10.9205 51.8616 11.7985 72.3219 16.1078 72.5242 16.5196
 3.25 54.2954 11.4456 54.4118 12.3705 76.4247 17.003 76.6325 17.4397
 3.26 57.0507 12.0075 57.1452 12.9826 80.8727 17.9714 81.0857 18.4349
 3.27 60.0119 12.6095 60.0796 13.6385 85.7055 19.0212 85.9233 19.5138
 3.28 63.2001 13.2557 63.2353 14.3426 90.9688 20.1617 91.1907 20.686
 3.29 66.6391 13.9504 66.6347 15.0996 96.715 21.4037 96.9403 21.9626
 3.3 70.356 14.6987 70.3038 15.9151 103.005 22.7599 103.233 23.3564
 3.31 74.3815 15.5062 74.2715 16.7952 109.91 24.2446 110.138 24.8824
 3.32 78.7511 16.3796 78.5711 17.747 117.512 25.8747 117.739 26.5578
 3.33 83.5051 17.326 83.2405 18.7785 125.908 27.67 126.132 28.4029
 3.34 88.6903 18.3541 88.3234 19.8989 135.213 29.6536 135.43 30.4415
 3.35 94.3608 19.4735 93.87 21.1188 145.564 31.8531 145.77 32.7018
 3.36 100.58 20.6954 99.9383 22.4503 157.122 34.301 157.311 35.2174
 3.37 107.421 22.0329 106.596 23.9076 170.083 37.0365 170.25 38.0284
 3.38 114.971 23.5011 113.922 25.5071 184.685 40.1068 184.819 41.1832
 3.39 123.333 25.1179 122.009 27.2681 201.216 43.5691 201.306 44.7406
 3.4 132.631 26.9041 130.966 29.2131 220.032 47.4936 220.062 48.7725
 3.41 143.01 28.8846 140.924 31.3689 241.577 51.9669 241.526 53.3678
 3.42 154.651 31.0887 152.038 33.7674 266.404 57.0968 266.245 58.637
 3.43 167.771 33.552 164.495 36.4466 295.218 63.0193 294.913 64.7195
 3.44 182.641 36.3173 178.524 39.4525 328.92 69.9074 328.419 71.7926
 3.45 199.598 39.4365 194.403 42.8409 368.685 77.9839 367.917 80.0846
 3.46 219.069 42.9738 212.476 46.6803 416.058 87.5398 414.925 89.8935
 3.47 241.603 47.0084 233.175 51.0551 473.109 98.9608 471.474 101.614
 3.48 267.917 51.6397 257.045 56.0709 542.662 112.766 540.322 115.778
 3.49 298.969 56.9936 284.784 61.8608 628.634 129.666 625.293 133.111
 3.5 336.068 63.2317 317.301 68.5947 736.588 150.655 731.796 154.631
 3.51 381.051 70.564 355.804 76.492 874.598 177.148 867.656 181.783
 3.52 436.586 79.2676 401.923 85.8402 1054.7 211.21 1044.48 216.675
 3.53 506.693 89.7132 457.921 97.0205 1295.3 255.917 1279.95 262.446
 3.54 597.667 102.403 527.018 110.544 1625.34 315.946 1601.63 323.861
 3.55 719.653 118.014 613.938 127.099 2091.13 398.482 2053.43 408.233
 3.56 888.744 137.431 725.752 147.587 2766.68 514.39 2705.28 526.604
 3.57 1125.73 161.611 872.872 173.077 3761.87 678.596 3662.68 694.112
 3.58 1432.85 190.902 1068.31 204.422 5192.49 904.155 5048.98 923.957
 3.59 1738.96 223.981 1319.3 241.587 7004.94 1171.76 6851.06 1196.35
 3.6 1972.11 261.435 1623.7 286.026 8581.96 1359.4 8469.28 1386.57
 3.61 2237.58 311.764 2020.87 345.014 8757.54 1274.21 8679.26 1298.03
 3.62 2680.4 377.926 2582.78 420.153 7431.07 954.632 7368.67 971.358
 3.63 3271.86 440.965 3263.49 491.157 5872.22 643.335 5847.98 655.035
 3.64 3758.44 473.308 3797.24 529.099 4917 461.791 4955.74 472.964
 3.65 4092.15 510.227 4134.9 573.778 4670.3 412.877 4783.44 427.915
 3.66 4710.37 629.381 4737.44 710.606 4788.69 445.543 4965.26 466.369
 3.67 5943.97 866.599 5963.03 979.29 4668.44 457.392 4855.69 480.393
 3.68 7762.46 1219.89 7853.47 1378.16 4314.58 418.699 4465.57 439.548
 3.69 9596.27 1602.42 9888.09 1809.05 4201.86 405.771 4314.6 425.236
 3.7 10306.6 1790.89 10749.9 2018.07 4235.71 445.925 4324.88 466.558
 3.71 9213.91 1640.52 9655.99 1844.54 3837.08 464.468 3910.17 485.415
 3.72 7155.04 1294.48 7521.86 1453.78 3030.04 414.508 3086.07 432.85
 3.73 5242.54 956.353 5518.58 1073.78 2272.64 338.473 2311.55 353.216
 3.74 3837.21 700.781 4032.99 786.944 1723.46 270.571 1747.18 282.195
 3.75 2875.28 522.086 3005.65 586.456 1349.07 217.785 1358.76 227.023
 3.76 2224.46 398.252 2298.86 447.51 1094.14 177.866 1088.85 185.317
 3.77 1784.16 311.076 1803.88 349.648 920.322 147.462 896.346 153.552
 3.78 1488.95 248.298 1448.79 279.071 804.122 123.907 755.616 128.929
 3.79 1284.93 202.033 1187.91 226.906 724.504 105.308 651.169 109.472
 3.8 1108.98 167.097 992.114 187.458 653.03 90.3417 573.927 93.8367
