 Energy(eV)     Sca_U     Sca_D
 442.801 4.1957 581.253
 441.225 4.31287 597.485
 439.66 4.434 614.266
 438.107 4.55927 631.62
 436.564 4.68886 649.574
 435.032 4.82297 668.153
 433.511 4.96181 687.386
 432 5.10558 707.303
 430.5 5.25452 727.936
 429.011 5.40887 749.319
 427.532 5.56889 771.488
 426.062 5.73485 794.48
 424.603 5.90705 818.335
 423.154 6.08579 843.097
 421.715 6.2714 868.81
 420.285 6.46422 895.523
 418.865 6.66464 923.288
 417.455 6.87305 952.159
 416.054 7.08986 982.195
 414.663 7.31553 1013.46
 413.28 7.55054 1046.02
 411.907 7.79541 1079.94
 410.544 8.05068 1115.3
 409.189 8.31695 1152.19
 407.843 8.59485 1190.69
 406.505 8.88506 1230.89
 405.177 9.18831 1272.9
 403.857 9.50538 1316.83
 402.546 9.83713 1362.79
 401.243 10.1845 1410.91
 399.949 10.5484 1461.32
 398.663 10.9299 1514.18
 397.385 11.3302 1569.64
 396.115 11.7506 1627.87
 394.854 12.1924 1689.07
 393.6 12.657 1753.44
 392.355 13.1461 1821.2
 391.117 13.6614 1892.59
 389.887 14.2048 1967.87
 388.665 14.7785 2047.34
 387.45 15.3846 2131.31
 386.243 16.0257 2220.12
 385.044 16.7045 2314.17
 383.852 17.4241 2413.86
 382.667 18.1879 2519.66
 381.49 18.9994 2632.08
 380.319 19.8627 2751.69
 379.156 20.7825 2879.12
 378 21.7638 3015.06
 376.851 22.8122 3160.29
 375.71 23.9339 3315.69
 374.574 25.1361 3482.24
 373.446 26.4266 3661.02
 372.325 27.8144 3853.28
 371.21 29.3096 4060.42
 370.102 30.9236 4284.02
 369 32.6695 4525.89
 367.905 34.5621 4788.08
 366.817 36.6185 5072.97
 365.735 38.8582 5383.26
 364.659 41.3041 5722.09
 363.59 43.9822 6093.12
 362.527 46.9234 6500.58
 361.47 50.1635 6949.45
 360.419 53.7447 7445.59
 359.374 57.7173 7995.94
 358.336 62.1409 8608.77
 357.303 67.0872 9294.02
 356.276 72.6427 10063.7
 355.255 78.9127 10932.3
 354.24 86.0265 11917.8
 353.231 94.1443 13042.5
 352.228 103.466 14333.9
 351.23 114.244 15827.1
 350.238 126.803 17567
 349.251 141.56 19611.4
 348.27 159.063 22036.4
 347.295 180.043 24942.9
 346.324 205.48 28467
 345.36 236.704 32792.9
 344.4 275.529 38171.8
 343.446 324.571 44966.2
 342.498 388.065 53762.9
 341.554 472.618 65477
 340.616 588.192 81488.3
 339.683 750.871 104024
 338.754 987.606 136814
 337.831 1343.4 186089
 336.913 1886.67 261330
 336 2677.42 370861
 335.092 3570.19 494529
 334.189 3921.61 543208
 333.291 3301.39 457290
 332.397 2271.71 314660
 331.508 1436.74 199007
 330.624 920.825 127548
 329.745 651.904 90299.6
 328.87 575.796 79758.5
 328 673.574 93303.5
 327.135 847.438 117388
 326.274 875.648 121296
